    FDMNES
    energy     <xanes>
   7097.00  2.3867757E-02
   7097.33  2.4185737E-02
   7097.67  2.4512048E-02
   7098.00  2.4847067E-02
   7098.33  2.5192424E-02
   7098.67  2.5547494E-02
   7099.00  2.5912766E-02
   7099.33  2.6290216E-02
   7099.67  2.6679176E-02
   7100.00  2.7080295E-02
   7100.33  2.7496027E-02
   7100.67  2.7925678E-02
   7101.00  2.8370131E-02
   7101.33  2.8832533E-02
   7101.67  2.9312191E-02
   7102.00  2.9810364E-02
   7102.33  3.0331234E-02
   7102.67  3.0874191E-02
   7103.00  3.1441106E-02
   7103.33  3.2037811E-02
   7103.67  3.2663948E-02
   7104.00  3.3322473E-02
   7104.33  3.4021999E-02
   7104.67  3.4762841E-02
   7105.00  3.5549989E-02
   7105.33  3.6397139E-02
   7105.67  3.7306321E-02
   7106.00  3.8286701E-02
   7106.33  3.9362196E-02
   7106.67  4.0539372E-02
   7107.00  4.1836989E-02
   7107.33  4.3302145E-02
   7107.67  4.4954644E-02
   7108.00  4.6838712E-02
   7108.33  4.9063330E-02
   7108.67  5.1693488E-02
   7109.00  5.4856338E-02
   7109.33  5.8869133E-02
   7109.67  6.3995198E-02
   7110.00  7.0728827E-02
   7110.33  8.0383477E-02
   7110.67  9.4452876E-02
   7111.00  1.1563329E-01
   7111.33  1.5106640E-01
   7111.67  2.0992193E-01
   7112.00  3.0432262E-01
   7112.33  4.2363000E-01
   7112.67  4.8313205E-01
   7113.00  4.2504664E-01
   7113.33  3.1339064E-01
   7113.67  2.3040380E-01
   7114.00  1.7997417E-01
   7114.33  1.5230839E-01
   7114.67  1.3626352E-01
   7115.00  1.2796005E-01
   7115.33  1.2516002E-01
   7115.67  1.2401145E-01
   7116.00  1.2179955E-01
   7116.33  1.1814248E-01
   7116.67  1.1475360E-01
   7117.00  1.1251660E-01
   7117.33  1.1171272E-01
   7117.67  1.1165563E-01
   7118.00  1.1197592E-01
   7118.33  1.1268933E-01
   7118.67  1.1382922E-01
   7119.00  1.1541728E-01
   7119.33  1.1752391E-01
   7119.67  1.2012138E-01
   7120.00  1.2324700E-01
   7120.33  1.2703222E-01
   7120.67  1.3148375E-01
   7121.00  1.3668207E-01
   7121.33  1.4282125E-01
   7121.67  1.4986559E-01
   7122.00  1.5785451E-01
   7122.33  1.6694164E-01
   7122.67  1.7703392E-01
   7123.00  1.8816103E-01
   7123.33  2.0049756E-01
   7123.67  2.1394742E-01
   7124.00  2.2853351E-01
   7124.33  2.4440356E-01
   7124.67  2.6138825E-01
   7125.00  2.7943590E-01
   7125.33  2.9857637E-01
   7125.67  3.1857068E-01
   7126.00  3.3930460E-01
   7126.33  3.6071148E-01
   7126.67  3.8257080E-01
   7127.00  4.0475203E-01
   7127.33  4.2709981E-01
   7127.67  4.4936853E-01
   7128.00  4.7129095E-01
   7128.33  4.9234296E-01
   7128.67  5.1206245E-01
   7129.00  5.2988951E-01
   7129.33  5.4483053E-01
   7129.67  5.5662375E-01
   7130.00  5.6493221E-01
   7130.33  5.6917074E-01
   7130.67  5.6994578E-01
   7131.00  5.6758198E-01
   7131.33  5.6228004E-01
   7131.67  5.5497140E-01
   7132.00  5.4618166E-01
   7132.33  5.3637076E-01
   7132.67  5.2615183E-01
   7133.00  5.1588162E-01
   7133.33  5.0592491E-01
   7133.67  4.9649052E-01
   7134.00  4.8772723E-01
   7134.33  4.7984954E-01
   7134.67  4.7282646E-01
   7135.00  4.6668599E-01
   7135.33  4.6154635E-01
   7135.67  4.5728312E-01
   7136.00  4.5387326E-01
   7136.33  4.5138215E-01
   7136.67  4.4966339E-01
   7137.00  4.4867464E-01
   7137.33  4.4844765E-01
   7137.67  4.4884241E-01
   7138.00  4.4981039E-01
   7138.33  4.5135917E-01
   7138.67  4.5336772E-01
   7139.00  4.5578856E-01
   7139.33  4.5861289E-01
   7139.67  4.6174457E-01
   7140.00  4.6514184E-01
   7140.33  4.6878622E-01
   7140.67  4.7260741E-01
   7141.00  4.7657115E-01
   7141.33  4.8065336E-01
   7141.67  4.8480633E-01
   7142.00  4.8900243E-01
   7142.33  4.9321303E-01
   7142.67  4.9740832E-01
   7143.00  5.0156561E-01
   7143.33  5.0565242E-01
   7143.67  5.0965405E-01
   7144.00  5.1355310E-01
   7144.33  5.1731696E-01
   7144.67  5.2094644E-01
   7145.00  5.2443251E-01
   7145.33  5.2774997E-01
   7145.67  5.3091584E-01
   7146.00  5.3393254E-01
   7146.33  5.3678968E-01
   7146.67  5.3951678E-01
   7147.00  5.4212706E-01
   7147.33  5.4462654E-01
   7147.67  5.4704802E-01
   7148.00  5.4941004E-01
   7148.33  5.5172960E-01
   7148.67  5.5403236E-01
   7149.00  5.5633494E-01
   7149.33  5.5865662E-01
   7149.67  5.6100951E-01
   7150.00  5.6340314E-01
   7150.33  5.6585133E-01
   7150.67  5.6835208E-01
   7151.00  5.7090587E-01
   7151.33  5.7351617E-01
   7151.67  5.7617036E-01
   7152.00  5.7886038E-01
   7152.33  5.8157686E-01
   7152.67  5.8430176E-01
   7153.00  5.8702010E-01
   7153.33  5.8970906E-01
   7153.67  5.9235044E-01
   7154.00  5.9492461E-01
   7154.33  5.9739614E-01
   7154.67  5.9975164E-01
   7155.00  6.0196955E-01
   7155.33  6.0400448E-01
   7155.67  6.0585223E-01
   7156.00  6.0749257E-01
   7156.33  6.0887460E-01
   7156.67  6.1000673E-01
   7157.00  6.1087349E-01
   7157.33  6.1142423E-01
   7157.67  6.1168166E-01
   7158.00  6.1163781E-01
   7158.33  6.1124825E-01
   7158.67  6.1054905E-01
   7159.00  6.0954111E-01
   7159.33  6.0819079E-01
   7159.67  6.0654393E-01
   7160.00  6.0460975E-01
   7160.33  6.0236737E-01
   7160.67  5.9986688E-01
   7161.00  5.9712345E-01
   7161.33  5.9412830E-01
   7161.67  5.9092964E-01
   7162.00  5.8754538E-01
   7162.33  5.8397603E-01
   7162.67  5.8026308E-01
   7163.00  5.7642406E-01
   7163.33  5.7246544E-01
   7163.67  5.6841926E-01
   7164.00  5.6430071E-01
   7164.33  5.6011939E-01
   7164.67  5.5589763E-01
   7165.00  5.5164758E-01
   7165.33  5.4738046E-01
   7165.67  5.4311018E-01
   7166.00  5.3884630E-01
   7166.33  5.3460123E-01
   7166.67  5.3038254E-01
   7167.00  5.2619798E-01
   7167.33  5.2206155E-01
   7167.67  5.1797613E-01
   7168.00  5.1394851E-01
   7168.33  5.0999455E-01
   7168.67  5.0611347E-01
   7169.00  5.0231138E-01
   7169.33  4.9860583E-01
   7169.67  4.9499255E-01
   7170.00  4.9147669E-01
   7170.33  4.8807658E-01
   7170.67  4.8478420E-01
   7171.00  4.8160305E-01
   7171.33  4.7855078E-01
   7171.67  4.7561547E-01
   7172.00  4.7279841E-01
