    FDMNES
    energy     <xanes>
   7097.00  2.4907505E-02
   7097.33  2.5284640E-02
   7097.67  2.5673231E-02
   7098.00  2.6073868E-02
   7098.33  2.6488898E-02
   7098.67  2.6917543E-02
   7099.00  2.7360575E-02
   7099.33  2.7820901E-02
   7099.67  2.8297696E-02
   7100.00  2.8791994E-02
   7100.33  2.9307490E-02
   7100.67  2.9843332E-02
   7101.00  3.0400956E-02
   7101.33  3.0985203E-02
   7101.67  3.1595251E-02
   7102.00  3.2233174E-02
   7102.33  3.2905551E-02
   7102.67  3.3611733E-02
   7103.00  3.4354850E-02
   7103.33  3.5144276E-02
   7103.67  3.5979846E-02
   7104.00  3.6866564E-02
   7104.33  3.7818591E-02
   7104.67  3.8837007E-02
   7105.00  3.9930396E-02
   7105.33  4.1121826E-02
   7105.67  4.2415576E-02
   7106.00  4.3827782E-02
   7106.33  4.5399950E-02
   7106.67  4.7145183E-02
   7107.00  4.9097800E-02
   7107.33  5.1343498E-02
   7107.67  5.3923273E-02
   7108.00  5.6924398E-02
   7108.33  6.0563998E-02
   7108.67  6.4994427E-02
   7109.00  7.0510268E-02
   7109.33  7.7881185E-02
   7109.67  8.7918223E-02
   7110.00  1.0221026E-01
   7110.33  1.2526292E-01
   7110.67  1.6161162E-01
   7111.00  2.1194563E-01
   7111.33  2.6377227E-01
   7111.67  3.1100432E-01
   7112.00  3.5729984E-01
   7112.33  4.0916200E-01
   7112.67  4.7425135E-01
   7113.00  5.4761529E-01
   7113.33  6.0297989E-01
   7113.67  6.0293179E-01
   7114.00  5.3660450E-01
   7114.33  4.4344420E-01
   7114.67  3.6423567E-01
   7115.00  3.0634052E-01
   7115.33  2.6882321E-01
   7115.67  2.4413273E-01
   7116.00  2.2837778E-01
   7116.33  2.1878820E-01
   7116.67  2.1233121E-01
   7117.00  2.0769242E-01
   7117.33  2.0415031E-01
   7117.67  2.0142187E-01
   7118.00  1.9959629E-01
   7118.33  1.9888343E-01
   7118.67  1.9917499E-01
   7119.00  2.0041145E-01
   7119.33  2.0259255E-01
   7119.67  2.0552332E-01
   7120.00  2.0913323E-01
   7120.33  2.1342540E-01
   7120.67  2.1831826E-01
   7121.00  2.2389747E-01
   7121.33  2.3041962E-01
   7121.67  2.3786171E-01
   7122.00  2.4618443E-01
   7122.33  2.5536518E-01
   7122.67  2.6523383E-01
   7123.00  2.7581738E-01
   7123.33  2.8730596E-01
   7123.67  2.9963845E-01
   7124.00  3.1274843E-01
   7124.33  3.2652648E-01
   7124.67  3.4068028E-01
   7125.00  3.5507308E-01
   7125.33  3.6969506E-01
   7125.67  3.8463261E-01
   7126.00  4.0007387E-01
   7126.33  4.1638089E-01
   7126.67  4.3369615E-01
   7127.00  4.5214267E-01
   7127.33  4.7185289E-01
   7127.67  4.9248646E-01
   7128.00  5.1372166E-01
   7128.33  5.3505972E-01
   7128.67  5.5590793E-01
   7129.00  5.7578026E-01
   7129.33  5.9401509E-01
   7129.67  6.1045415E-01
   7130.00  6.2493039E-01
   7130.33  6.3713630E-01
   7130.67  6.4739770E-01
   7131.00  6.5585317E-01
   7131.33  6.6250726E-01
   7131.67  6.6776090E-01
   7132.00  6.7175004E-01
   7132.33  6.7442344E-01
   7132.67  6.7595378E-01
   7133.00  6.7632237E-01
   7133.33  6.7533548E-01
   7133.67  6.7310860E-01
   7134.00  6.6963970E-01
   7134.33  6.6482727E-01
   7134.67  6.5892799E-01
   7135.00  6.5207753E-01
   7135.33  6.4437710E-01
   7135.67  6.3613860E-01
   7136.00  6.2755126E-01
   7136.33  6.1880720E-01
   7136.67  6.1011074E-01
   7137.00  6.0159912E-01
   7137.33  5.9344281E-01
   7137.67  5.8570253E-01
   7138.00  5.7844117E-01
   7138.33  5.7177424E-01
   7138.67  5.6566283E-01
   7139.00  5.6011505E-01
   7139.33  5.5519547E-01
   7139.67  5.5081615E-01
   7140.00  5.4695314E-01
   7140.33  5.4363101E-01
   7140.67  5.4074787E-01
   7141.00  5.3826428E-01
   7141.33  5.3617552E-01
   7141.67  5.3438782E-01
   7142.00  5.3285850E-01
   7142.33  5.3156541E-01
   7142.67  5.3043649E-01
   7143.00  5.2943529E-01
   7143.33  5.2853441E-01
   7143.67  5.2768887E-01
   7144.00  5.2687360E-01
   7144.33  5.2606458E-01
   7144.67  5.2524112E-01
   7145.00  5.2438955E-01
   7145.33  5.2349259E-01
   7145.67  5.2254658E-01
   7146.00  5.2154655E-01
   7146.33  5.2048211E-01
   7146.67  5.1935956E-01
   7147.00  5.1817984E-01
   7147.33  5.1693897E-01
   7147.67  5.1564816E-01
   7148.00  5.1431230E-01
   7148.33  5.1293344E-01
   7148.67  5.1152410E-01
   7149.00  5.1009155E-01
   7149.33  5.0864291E-01
   7149.67  5.0718912E-01
   7150.00  5.0573802E-01
   7150.33  5.0429994E-01
   7150.67  5.0288175E-01
   7151.00  5.0148997E-01
   7151.33  5.0013533E-01
   7151.67  4.9881907E-01
   7152.00  4.9754465E-01
   7152.33  4.9632013E-01
   7152.67  4.9514080E-01
   7153.00  4.9400597E-01
   7153.33  4.9291841E-01
   7153.67  4.9186863E-01
   7154.00  4.9085171E-01
   7154.33  4.8986369E-01
   7154.67  4.8889289E-01
   7155.00  4.8793123E-01
   7155.33  4.8696841E-01
   7155.67  4.8599396E-01
   7156.00  4.8499867E-01
   7156.33  4.8396814E-01
   7156.67  4.8289633E-01
   7157.00  4.8177540E-01
   7157.33  4.8059011E-01
   7157.67  4.7934092E-01
   7158.00  4.7802328E-01
   7158.33  4.7662445E-01
   7158.67  4.7515142E-01
   7159.00  4.7360383E-01
   7159.33  4.7197361E-01
   7159.67  4.7027258E-01
   7160.00  4.6850414E-01
   7160.33  4.6666563E-01
   7160.67  4.6477098E-01
   7161.00  4.6282614E-01
   7161.33  4.6083328E-01
   7161.67  4.5880566E-01
   7162.00  4.5675026E-01
   7162.33  4.5467280E-01
   7162.67  4.5258376E-01
   7163.00  4.5048980E-01
   7163.33  4.4839858E-01
   7163.67  4.4631667E-01
   7164.00  4.4424945E-01
   7164.33  4.4220516E-01
   7164.67  4.4018623E-01
   7165.00  4.3819640E-01
   7165.33  4.3624350E-01
   7165.67  4.3432652E-01
   7166.00  4.3244764E-01
   7166.33  4.3061399E-01
   7166.67  4.2882216E-01
   7167.00  4.2707327E-01
   7167.33  4.2537387E-01
   7167.67  4.2371928E-01
   7168.00  4.2211006E-01
   7168.33  4.2055254E-01
   7168.67  4.1904146E-01
   7169.00  4.1757719E-01
   7169.33  4.1616600E-01
   7169.67  4.1480233E-01
   7170.00  4.1348636E-01
   7170.33  4.1222424E-01
   7170.67  4.1100999E-01
   7171.00  4.0984351E-01
   7171.33  4.0873042E-01
   7171.67  4.0766429E-01
   7172.00  4.0664453E-01
