    FDMNES
    energy     <xanes>
   7097.00  2.3933364E-02
   7097.33  2.4274172E-02
   7097.67  2.4624200E-02
   7098.00  2.4983861E-02
   7098.33  2.5354939E-02
   7098.67  2.5736728E-02
   7099.00  2.6129751E-02
   7099.33  2.6536156E-02
   7099.67  2.6955186E-02
   7100.00  2.7387523E-02
   7100.33  2.7835814E-02
   7100.67  2.8299258E-02
   7101.00  2.8778779E-02
   7101.33  2.9277732E-02
   7101.67  2.9795306E-02
   7102.00  3.0332800E-02
   7102.33  3.0894629E-02
   7102.67  3.1480051E-02
   7103.00  3.2090989E-02
   7103.33  3.2733537E-02
   7103.67  3.3407215E-02
   7104.00  3.4115055E-02
   7104.33  3.4866029E-02
   7104.67  3.5660383E-02
   7105.00  3.6503307E-02
   7105.33  3.7409167E-02
   7105.67  3.8380187E-02
   7106.00  3.9426208E-02
   7106.33  4.0572984E-02
   7106.67  4.1828404E-02
   7107.00  4.3213848E-02
   7107.33  4.4783159E-02
   7107.67  4.6562669E-02
   7108.00  4.8608421E-02
   7108.33  5.1060393E-02
   7108.67  5.4019709E-02
   7109.00  5.7680567E-02
   7109.33  6.2549745E-02
   7109.67  6.9163841E-02
   7110.00  7.8566344E-02
   7110.33  9.3753453E-02
   7110.67  1.1841960E-01
   7111.00  1.5661677E-01
   7111.33  2.0705266E-01
   7111.67  2.5115475E-01
   7112.00  2.7470824E-01
   7112.33  2.8138443E-01
   7112.67  2.7409321E-01
   7113.00  2.4454962E-01
   7113.33  2.0654716E-01
   7113.67  1.7837971E-01
   7114.00  1.5979296E-01
   7114.33  1.4488983E-01
   7114.67  1.3317103E-01
   7115.00  1.2586371E-01
   7115.33  1.2242322E-01
   7115.67  1.2096807E-01
   7116.00  1.2090838E-01
   7116.33  1.2239091E-01
   7116.67  1.2523200E-01
   7117.00  1.2924225E-01
   7117.33  1.3425203E-01
   7117.67  1.4002743E-01
   7118.00  1.4668100E-01
   7118.33  1.5461018E-01
   7118.67  1.6390119E-01
   7119.00  1.7469713E-01
   7119.33  1.8731900E-01
   7119.67  2.0162580E-01
   7120.00  2.1761728E-01
   7120.33  2.3542356E-01
   7120.67  2.5468652E-01
   7121.00  2.7520116E-01
   7121.33  2.9676250E-01
   7121.67  3.1884551E-01
   7122.00  3.4103631E-01
   7122.33  3.6276237E-01
   7122.67  3.8358424E-01
   7123.00  4.0316115E-01
   7123.33  4.2103188E-01
   7123.67  4.3724474E-01
   7124.00  4.5176304E-01
   7124.33  4.6439061E-01
   7124.67  4.7537246E-01
   7125.00  4.8476175E-01
   7125.33  4.9252646E-01
   7125.67  4.9912465E-01
   7126.00  5.0486261E-01
   7126.33  5.1002432E-01
   7126.67  5.1494966E-01
   7127.00  5.1980610E-01
   7127.33  5.2472578E-01
   7127.67  5.2976054E-01
   7128.00  5.3491350E-01
   7128.33  5.4015649E-01
   7128.67  5.4542042E-01
   7129.00  5.5065838E-01
   7129.33  5.5582907E-01
   7129.67  5.6093233E-01
   7130.00  5.6597795E-01
   7130.33  5.7098163E-01
   7130.67  5.7596685E-01
   7131.00  5.8094051E-01
   7131.33  5.8588926E-01
   7131.67  5.9077992E-01
   7132.00  5.9556010E-01
   7132.33  6.0012211E-01
   7132.67  6.0439003E-01
   7133.00  6.0827264E-01
   7133.33  6.1160692E-01
   7133.67  6.1436605E-01
   7134.00  6.1649211E-01
   7134.33  6.1785709E-01
   7134.67  6.1852905E-01
   7135.00  6.1851458E-01
   7135.33  6.1776088E-01
   7135.67  6.1639910E-01
   7136.00  6.1448353E-01
   7136.33  6.1202726E-01
   7136.67  6.0916938E-01
   7137.00  6.0597877E-01
   7137.33  6.0250174E-01
   7137.67  5.9884313E-01
   7138.00  5.9505995E-01
   7138.33  5.9120309E-01
   7138.67  5.8733165E-01
   7139.00  5.8348285E-01
   7139.33  5.7970059E-01
   7139.67  5.7600713E-01
   7140.00  5.7242302E-01
   7140.33  5.6898314E-01
   7140.67  5.6568550E-01
   7141.00  5.6253870E-01
   7141.33  5.5956893E-01
   7141.67  5.5675970E-01
   7142.00  5.5411138E-01
   7142.33  5.5164181E-01
   7142.67  5.4932669E-01
   7143.00  5.4716054E-01
   7143.33  5.4515261E-01
   7143.67  5.4327511E-01
   7144.00  5.4151787E-01
   7144.33  5.3988068E-01
   7144.67  5.3833501E-01
   7145.00  5.3686652E-01
   7145.33  5.3546443E-01
   7145.67  5.3410181E-01
   7146.00  5.3276093E-01
   7146.33  5.3142022E-01
   7146.67  5.3005741E-01
   7147.00  5.2865324E-01
   7147.33  5.2717747E-01
   7147.67  5.2561647E-01
   7148.00  5.2395276E-01
   7148.33  5.2215242E-01
   7148.67  5.2021424E-01
   7149.00  5.1812638E-01
   7149.33  5.1585796E-01
   7149.67  5.1342165E-01
   7150.00  5.1081402E-01
   7150.33  5.0801293E-01
   7150.67  5.0504278E-01
   7151.00  5.0190873E-01
   7151.33  4.9860020E-01
   7151.67  4.9514801E-01
   7152.00  4.9156376E-01
   7152.33  4.8784800E-01
   7152.67  4.8403188E-01
   7153.00  4.8013031E-01
   7153.33  4.7615280E-01
   7153.67  4.7212600E-01
   7154.00  4.6806551E-01
   7154.33  4.6398732E-01
   7154.67  4.5991095E-01
   7155.00  4.5585097E-01
   7155.33  4.5182785E-01
   7155.67  4.4785306E-01
   7156.00  4.4393921E-01
   7156.33  4.4010952E-01
   7156.67  4.3636746E-01
   7157.00  4.3272318E-01
   7157.33  4.2920101E-01
   7157.67  4.2579699E-01
   7158.00  4.2251841E-01
   7158.33  4.1938923E-01
   7158.67  4.1639898E-01
   7159.00  4.1355195E-01
   7159.33  4.1087041E-01
   7159.67  4.0833869E-01
   7160.00  4.0595822E-01
   7160.33  4.0374865E-01
   7160.67  4.0169064E-01
   7161.00  3.9978311E-01
   7161.33  3.9804252E-01
   7161.67  3.9644740E-01
   7162.00  3.9499461E-01
   7162.33  3.9369709E-01
   7162.67  3.9253264E-01
   7163.00  3.9149656E-01
   7163.33  3.9059822E-01
   7163.67  3.8981593E-01
   7164.00  3.8914400E-01
   7164.33  3.8858843E-01
   7164.67  3.8812925E-01
   7165.00  3.8776034E-01
   7165.33  3.8748497E-01
   7165.67  3.8728570E-01
   7166.00  3.8715661E-01
   7166.33  3.8709889E-01
   7166.67  3.8709810E-01
   7167.00  3.8714890E-01
   7167.33  3.8725096E-01
   7167.67  3.8739286E-01
   7168.00  3.8756990E-01
   7168.33  3.8778062E-01
   7168.67  3.8801632E-01
   7169.00  3.8827296E-01
   7169.33  3.8854814E-01
   7169.67  3.8883561E-01
   7170.00  3.8913198E-01
   7170.33  3.8943425E-01
   7170.67  3.8973841E-01
   7171.00  3.9004183E-01
   7171.33  3.9034134E-01
   7171.67  3.9063499E-01
   7172.00  3.9092104E-01
