    FDMNES
    energy     <xanes>
   7097.00  2.4743781E-02
   7097.33  2.5088654E-02
   7097.67  2.5442706E-02
   7098.00  2.5806337E-02
   7098.33  2.6181311E-02
   7098.67  2.6566910E-02
   7099.00  2.6963642E-02
   7099.33  2.7373616E-02
   7099.67  2.7796060E-02
   7100.00  2.8231627E-02
   7100.33  2.8682896E-02
   7100.67  2.9149046E-02
   7101.00  2.9630946E-02
   7101.33  3.0131833E-02
   7101.67  3.0650858E-02
   7102.00  3.1189227E-02
   7102.33  3.1751139E-02
   7102.67  3.2335780E-02
   7103.00  3.2944903E-02
   7103.33  3.3584202E-02
   7103.67  3.4253047E-02
   7104.00  3.4954144E-02
   7104.33  3.5695685E-02
   7104.67  3.6477596E-02
   7105.00  3.7304393E-02
   7105.33  3.8188838E-02
   7105.67  3.9132401E-02
   7106.00  4.0143419E-02
   7106.33  4.1244077E-02
   7106.67  4.2440298E-02
   7107.00  4.3749736E-02
   7107.33  4.5217348E-02
   7107.67  4.6863614E-02
   7108.00  4.8733904E-02
   7108.33  5.0942273E-02
   7108.67  5.3568959E-02
   7109.00  5.6770631E-02
   7109.33  6.0959277E-02
   7109.67  6.6575500E-02
   7110.00  7.4483696E-02
   7110.33  8.7130602E-02
   7110.67  1.0689945E-01
   7111.00  1.3402122E-01
   7111.33  1.6484073E-01
   7111.67  1.9915694E-01
   7112.00  2.2896893E-01
   7112.33  2.3991074E-01
   7112.67  2.4255338E-01
   7113.00  2.3744891E-01
   7113.33  2.2647815E-01
   7113.67  2.0909314E-01
   7114.00  1.8278891E-01
   7114.33  1.5943333E-01
   7114.67  1.4444494E-01
   7115.00  1.3665642E-01
   7115.33  1.3454645E-01
   7115.67  1.3610361E-01
   7116.00  1.4072519E-01
   7116.33  1.4849514E-01
   7116.67  1.5910167E-01
   7117.00  1.7272752E-01
   7117.33  1.8994819E-01
   7117.67  2.0982897E-01
   7118.00  2.3027691E-01
   7118.33  2.4588166E-01
   7118.67  2.5358145E-01
   7119.00  2.5530836E-01
   7119.33  2.5664027E-01
   7119.67  2.6139705E-01
   7120.00  2.7037266E-01
   7120.33  2.8351319E-01
   7120.67  2.9943629E-01
   7121.00  3.1739437E-01
   7121.33  3.3676106E-01
   7121.67  3.5662935E-01
   7122.00  3.7636483E-01
   7122.33  3.9519916E-01
   7122.67  4.1274879E-01
   7123.00  4.2880202E-01
   7123.33  4.4311970E-01
   7123.67  4.5595126E-01
   7124.00  4.6735483E-01
   7124.33  4.7722590E-01
   7124.67  4.8583092E-01
   7125.00  4.9329683E-01
   7125.33  4.9969857E-01
   7125.67  5.0536051E-01
   7126.00  5.1043466E-01
   7126.33  5.1498149E-01
   7126.67  5.1911268E-01
   7127.00  5.2283519E-01
   7127.33  5.2608405E-01
   7127.67  5.2889730E-01
   7128.00  5.3126963E-01
   7128.33  5.3315359E-01
   7128.67  5.3462560E-01
   7129.00  5.3571654E-01
   7129.33  5.3643278E-01
   7129.67  5.3687391E-01
   7130.00  5.3709484E-01
   7130.33  5.3714287E-01
   7130.67  5.3710225E-01
   7131.00  5.3702416E-01
   7131.33  5.3696099E-01
   7131.67  5.3694955E-01
   7132.00  5.3701209E-01
   7132.33  5.3717343E-01
   7132.67  5.3742501E-01
   7133.00  5.3776155E-01
   7133.33  5.3817962E-01
   7133.67  5.3865322E-01
   7134.00  5.3916583E-01
   7134.33  5.3970013E-01
   7134.67  5.4023522E-01
   7135.00  5.4075752E-01
   7135.33  5.4125208E-01
   7135.67  5.4171536E-01
   7136.00  5.4214624E-01
   7136.33  5.4254496E-01
   7136.67  5.4292373E-01
   7137.00  5.4329286E-01
   7137.33  5.4366705E-01
   7137.67  5.4406070E-01
   7138.00  5.4448618E-01
   7138.33  5.4496186E-01
   7138.67  5.4549231E-01
   7139.00  5.4608358E-01
   7139.33  5.4674733E-01
   7139.67  5.4747528E-01
   7140.00  5.4826424E-01
   7140.33  5.4911393E-01
   7140.67  5.5000737E-01
   7141.00  5.5093359E-01
   7141.33  5.5187993E-01
   7141.67  5.5282751E-01
   7142.00  5.5376111E-01
   7142.33  5.5465830E-01
   7142.67  5.5550453E-01
   7143.00  5.5628407E-01
   7143.33  5.5696860E-01
   7143.67  5.5755187E-01
   7144.00  5.5802044E-01
   7144.33  5.5834380E-01
   7144.67  5.5852528E-01
   7145.00  5.5855524E-01
   7145.33  5.5840396E-01
   7145.67  5.5808382E-01
   7146.00  5.5758969E-01
   7146.33  5.5689517E-01
   7146.67  5.5602037E-01
   7147.00  5.5496510E-01
   7147.33  5.5370865E-01
   7147.67  5.5227708E-01
   7148.00  5.5067509E-01
   7148.33  5.4888956E-01
   7148.67  5.4694986E-01
   7149.00  5.4486492E-01
   7149.33  5.4262973E-01
   7149.67  5.4027378E-01
   7150.00  5.3780876E-01
   7150.33  5.3523701E-01
   7150.67  5.3258500E-01
   7151.00  5.2986539E-01
   7151.33  5.2708631E-01
   7151.67  5.2426886E-01
   7152.00  5.2142517E-01
   7152.33  5.1856727E-01
   7152.67  5.1570968E-01
   7153.00  5.1286287E-01
   7153.33  5.1004096E-01
   7153.67  5.0725159E-01
   7154.00  5.0450282E-01
   7154.33  5.0180915E-01
   7154.67  4.9917169E-01
   7155.00  4.9659568E-01
   7155.33  4.9409445E-01
   7155.67  4.9166354E-01
   7156.00  4.8930531E-01
   7156.33  4.8703083E-01
   7156.67  4.8483153E-01
   7157.00  4.8270727E-01
   7157.33  4.8066645E-01
   7157.67  4.7869820E-01
   7158.00  4.7680071E-01
   7158.33  4.7498000E-01
   7158.67  4.7322473E-01
   7159.00  4.7153237E-01
   7159.33  4.6990738E-01
   7159.67  4.6833933E-01
   7160.00  4.6682577E-01
   7160.33  4.6537051E-01
   7160.67  4.6396464E-01
   7161.00  4.6260626E-01
   7161.33  4.6129907E-01
   7161.67  4.6003563E-01
   7162.00  4.5881460E-01
   7162.33  4.5763971E-01
   7162.67  4.5650454E-01
   7163.00  4.5540807E-01
   7163.33  4.5435386E-01
   7163.67  4.5333608E-01
   7164.00  4.5235378E-01
   7164.33  4.5141009E-01
   7164.67  4.5049956E-01
   7165.00  4.4962118E-01
   7165.33  4.4877760E-01
   7165.67  4.4796374E-01
   7166.00  4.4717855E-01
   7166.33  4.4642431E-01
   7166.67  4.4569641E-01
   7167.00  4.4499393E-01
   7167.33  4.4431888E-01
   7167.67  4.4366726E-01
   7168.00  4.4303834E-01
   7168.33  4.4243405E-01
   7168.67  4.4185096E-01
   7169.00  4.4128854E-01
   7169.33  4.4074874E-01
   7169.67  4.4022856E-01
   7170.00  4.3972762E-01
   7170.33  4.3924788E-01
   7170.67  4.3878659E-01
   7171.00  4.3834345E-01
   7171.33  4.3792031E-01
   7171.67  4.3751456E-01
   7172.00  4.3712585E-01
